# nu[cm-1] sigma[cm2/molecule]  (4971 lines, p=1013.25hPa T=296.0K wing=40)
6.300000000000000000e+03 9.990121570165370151e-25
6.300040000000000873e+03 7.268075939533821779e-25
6.300080000000001746e+03 5.057155050441903147e-25
6.300120000000002619e+03 3.500452289622457168e-25
6.300160000000003492e+03 2.538291824520396216e-25
6.300200000000004366e+03 1.938097370321154544e-25
6.300240000000005239e+03 1.545155044452762256e-25
6.300280000000006112e+03 1.273385343086320588e-25
6.300320000000006985e+03 1.076666817252932130e-25
6.300360000000007858e+03 9.321896109300632878e-26
6.300400000000008731e+03 8.246322003642721299e-26
6.300440000000009604e+03 7.425770826598345378e-26
6.300480000000010477e+03 6.785440900915823900e-26
6.300520000000011350e+03 6.287074160933984559e-26
6.300560000000012224e+03 5.893079462111507314e-26
6.300600000000013097e+03 5.603129978810034990e-26
6.300640000000013970e+03 5.406924756774678279e-26
6.300680000000014843e+03 5.277529644502783698e-26
6.300720000000015716e+03 5.255601256769263678e-26
6.300760000000016589e+03 5.395511250649605923e-26
6.300800000000017462e+03 5.818517746809578800e-26
6.300840000000018335e+03 6.657616690765654123e-26
6.300880000000019209e+03 7.046373799087971473e-26
6.300920000000020082e+03 6.359548873027037157e-26
6.300960000000020955e+03 5.942808540539997872e-26
6.301000000000021828e+03 6.003350458738383408e-26
6.301040000000022701e+03 5.927910558076763757e-26
6.301080000000023574e+03 5.581028060045411715e-26
6.301120000000024447e+03 5.408269293052726944e-26
6.301160000000025320e+03 5.469982026049194993e-26
6.301200000000026193e+03 5.681754620706599686e-26
6.301240000000027067e+03 5.835862398440177665e-26
6.301280000000027940e+03 5.943852190538052318e-26
6.301320000000028813e+03 6.169712082272155397e-26
6.301360000000029686e+03 6.541241238107141267e-26
6.301400000000030559e+03 7.084546657225628501e-26
6.301440000000031432e+03 7.790568299018972585e-26
6.301480000000032305e+03 8.726643329091674719e-26
6.301520000000033178e+03 9.958995316678372831e-26
6.301560000000034051e+03 1.170891539063851795e-25
6.301600000000034925e+03 1.437935261015693786e-25
6.301640000000035798e+03 1.845212452085605498e-25
6.301680000000036671e+03 2.423537152849126902e-25
6.301720000000037544e+03 3.199023805861195693e-25
6.301760000000038417e+03 3.729724152083337776e-25
6.301800000000039290e+03 3.582016202693823259e-25
6.301840000000040163e+03 3.424027037138169012e-25
6.301880000000041036e+03 3.708443758685661026e-25
6.301920000000041910e+03 4.554299038885272315e-25
6.301960000000042783e+03 6.202366269119361010e-25
6.302000000000043656e+03 9.150138786404324344e-25
6.302040000000044529e+03 1.458217220202234521e-24
6.302080000000045402e+03 2.532951568753233526e-24
6.302120000000046275e+03 3.952482728998100297e-24
6.302160000000047148e+03 3.656537024040263995e-24
6.302200000000048021e+03 2.182341002580260008e-24
6.302240000000048894e+03 1.244048489188127540e-24
6.302280000000049768e+03 7.693580939653021914e-25
6.302320000000050641e+03 5.174602507096562691e-25
6.302360000000051514e+03 3.721387976991820392e-25
6.302400000000052387e+03 2.822770729449629853e-25
6.302440000000053260e+03 2.235022553825792011e-25
6.302480000000054133e+03 1.831836531827372928e-25
6.302520000000055006e+03 1.547538953884215787e-25
6.302560000000055879e+03 1.347207622520851489e-25
6.302600000000056752e+03 1.210520677439296823e-25
6.302640000000057626e+03 1.110525530450460780e-25
6.302680000000058499e+03 1.006778204689716745e-25
6.302720000000059372e+03 9.156244785568354684e-26
6.302760000000060245e+03 8.563153758121537534e-26
6.302800000000061118e+03 8.292501285446921257e-26
6.302840000000061991e+03 8.313009619369893772e-26
6.302880000000062864e+03 8.254885953220748694e-26
6.302920000000063737e+03 7.837713246553695294e-26
6.302960000000064611e+03 7.578529621823068587e-26
6.303000000000065484e+03 7.744339307543050865e-26
6.303040000000066357e+03 8.504657307881343133e-26
6.303080000000067230e+03 9.840736741683867050e-26
6.303120000000068103e+03 1.004840588898689720e-25
6.303160000000068976e+03 8.989496207649700571e-26
6.303200000000069849e+03 8.491580762871331110e-26
6.303240000000070722e+03 8.711418450792150563e-26
6.303280000000071595e+03 9.584331943467136747e-26
6.303320000000072469e+03 1.131540555610095325e-25
6.303360000000073342e+03 1.438830643355127062e-25
6.303400000000074215e+03 1.899540788269810930e-25
6.303440000000075088e+03 2.241820128251438294e-25
6.303480000000075961e+03 2.042958034445306743e-25
6.303520000000076834e+03 1.626998482538678587e-25
6.303560000000077707e+03 1.352068197654138480e-25
6.303600000000078580e+03 1.234354975571957543e-25
6.303640000000079453e+03 1.202214806118043577e-25
6.303680000000080327e+03 1.180954112657439587e-25
6.303720000000081200e+03 1.195006319452843385e-25
6.303760000000082073e+03 1.275766962393876598e-25
6.303800000000082946e+03 1.386972897815270150e-25
6.303840000000083819e+03 1.457916644407757273e-25
6.303880000000084692e+03 1.555977566872567268e-25
6.303920000000085565e+03 1.729338121887723241e-25
6.303960000000086438e+03 1.990304025769009159e-25
6.304000000000087311e+03 2.364018522043886678e-25
6.304040000000088185e+03 2.891343978018807587e-25
6.304080000000089058e+03 3.609588491646156414e-25
6.304120000000089931e+03 4.644870075387433505e-25
6.304160000000090804e+03 6.304073459638793293e-25
6.304200000000091677e+03 9.142013187709190011e-25
6.304240000000092550e+03 1.435962467333846303e-24
6.304280000000093423e+03 2.461746287026526837e-24
6.304320000000094296e+03 4.330269600347026704e-24
6.304360000000095170e+03 5.751116713637457959e-24
6.304400000000096043e+03 4.260318319100969056e-24
6.304440000000096916e+03 2.417802662702775144e-24
6.304480000000097789e+03 1.415082349251249250e-24
6.304520000000098662e+03 9.041699257581551783e-25
6.304560000000099535e+03 6.253241944402559335e-25
6.304600000000100408e+03 4.615224223157596882e-25
6.304640000000101281e+03 3.600506252421733240e-25
6.304680000000102154e+03 2.939051621412814695e-25
6.304720000000103028e+03 2.449859624427867919e-25
6.304760000000103901e+03 2.070853724220278496e-25
6.304800000000104774e+03 1.800835650527659217e-25
6.304840000000105647e+03 1.617190145810573915e-25
6.304880000000106520e+03 1.499921456232535216e-25
6.304920000000107393e+03 1.441977732101850304e-25
6.304960000000108266e+03 1.454615207218073269e-25
6.305000000000109139e+03 1.556871072432472246e-25
6.305040000000110012e+03 1.775826013946598407e-25
6.305080000000110886e+03 2.001920073830844849e-25
6.305120000000111759e+03 1.918894521843773551e-25
6.305160000000112632e+03 1.612270925184755573e-25
6.305200000000113505e+03 1.388740954436781055e-25
6.305240000000114378e+03 1.325463087869986493e-25
6.305280000000115251e+03 1.414191889799568866e-25
6.305320000000116124e+03 1.459855247672296443e-25
6.305360000000116997e+03 1.277411197802900788e-25
6.305400000000117871e+03 1.144233678297228981e-25
6.305440000000118744e+03 1.124360857143369049e-25
6.305480000000119617e+03 1.110258849327137736e-25
6.305520000000120490e+03 1.028717215100924100e-25
6.305560000000121363e+03 9.553928602730347719e-26
6.305600000000122236e+03 9.222756739482069672e-26
6.305640000000123109e+03 9.185376716339839154e-26
6.305680000000123982e+03 9.343768392999005336e-26
6.305720000000124855e+03 9.650432556391682080e-26
6.305760000000125729e+03 1.011246977523414026e-25
6.305800000000126602e+03 1.077747067693500938e-25
6.305840000000127475e+03 1.174571092603126288e-25
6.305880000000128348e+03 1.316487394928865431e-25
6.305920000000129221e+03 1.468073463260366179e-25
6.305960000000130094e+03 1.537695535340253889e-25
6.306000000000130967e+03 1.613034710304061712e-25
6.306040000000131840e+03 1.753379644368434947e-25
6.306080000000132713e+03 1.956964314088504831e-25
6.306120000000133587e+03 2.234387862093891057e-25
6.306160000000134460e+03 2.608407377020826156e-25
6.306200000000135333e+03 3.113011010392671173e-25
6.306240000000136206e+03 3.805587053398658852e-25
6.306280000000137079e+03 4.797721420662645524e-25
6.306320000000137952e+03 6.286725788661633070e-25
6.306360000000138825e+03 8.640122139576154433e-25
6.306400000000139698e+03 1.261488432844049340e-24
6.306440000000140572e+03 1.989146940809491059e-24
6.306480000000141445e+03 3.411789460970228784e-24
6.306520000000142318e+03 5.953746672546843604e-24
6.306560000000143191e+03 7.727271379064856007e-24
6.306600000000144064e+03 5.650570764942758721e-24
6.306640000000144937e+03 3.263124607818438313e-24
6.306680000000145810e+03 2.000968309403697751e-24
6.306720000000146683e+03 1.336556209891493217e-24
6.306760000000147556e+03 9.230901206903169796e-25
6.306800000000148430e+03 6.699513344352689105e-25
6.306840000000149303e+03 5.140182790683517659e-25
6.306880000000150176e+03 4.066483930505429055e-25
6.306920000000151049e+03 3.290687725548963309e-25
6.306960000000151922e+03 2.743540805556347217e-25
6.307000000000152795e+03 2.348160235095993179e-25
6.307040000000153668e+03 2.054934609588762611e-25
6.307080000000154541e+03 1.834982635883029892e-25
6.307120000000155414e+03 1.667700791990794625e-25
6.307160000000156288e+03 1.543295106827587987e-25
6.307200000000157161e+03 1.457517457278625334e-25
6.307240000000158034e+03 1.411909078805525862e-25
6.307280000000158907e+03 1.390291578569328951e-25
6.307320000000159780e+03 1.344430673516595783e-25
6.307360000000160653e+03 1.306636019927591841e-25
6.307400000000161526e+03 1.335773759201068973e-25
6.307440000000162399e+03 1.477616983783838694e-25
6.307480000000163272e+03 1.730177923601606262e-25
6.307520000000164146e+03 1.742977088697205198e-25
6.307560000000165019e+03 1.458444036961136818e-25
6.307600000000165892e+03 1.258766139667926645e-25
6.307640000000166765e+03 1.163494911639040282e-25
6.307680000000167638e+03 1.121657690400690026e-25
6.307720000000168511e+03 1.110330822915978597e-25
6.307760000000169384e+03 1.119642719726349312e-25
6.307800000000170257e+03 1.145441389750480178e-25
6.307840000000171131e+03 1.187743202721477005e-25
6.307880000000172004e+03 1.250420131631284723e-25
6.307920000000172877e+03 1.343452779190798027e-25
6.307960000000173750e+03 1.485960988272320064e-25
6.308000000000174623e+03 1.671704140975168282e-25
6.308040000000175496e+03 1.771146239774835235e-25
6.308080000000176369e+03 1.810257926492371632e-25
6.308120000000177242e+03 1.924063188599037309e-25
6.308160000000178115e+03 2.136076732043517138e-25
6.308200000000178989e+03 2.438595895651179013e-25
6.308240000000179862e+03 2.729662740910043759e-25
6.308280000000180735e+03 2.988393224908279604e-25
6.308320000000181608e+03 3.361587718311356412e-25
6.308360000000182481e+03 3.923209581455105129e-25
6.308400000000183354e+03 4.730806127126715551e-25
6.308440000000184227e+03 5.894352263220226187e-25
6.308480000000185100e+03 7.622706666736486089e-25
6.308520000000185973e+03 1.030941220218322529e-24
6.308560000000186847e+03 1.475622692568490472e-24
6.308600000000187720e+03 2.270908653103865950e-24
6.308640000000188593e+03 3.805650207034622963e-24
6.308680000000189466e+03 6.738389057148677917e-24
6.308720000000190339e+03 1.007324408121964679e-23
6.308760000000191212e+03 8.668575323261557319e-24
6.308800000000192085e+03 5.086611096436280488e-24
6.308840000000192958e+03 2.933691081282041569e-24
6.308880000000193832e+03 1.848517819397126326e-24
6.308920000000194705e+03 1.283096950507891337e-24
6.308960000000195578e+03 9.847604823981069723e-25
6.309000000000196451e+03 8.240608587167648631e-25
6.309040000000197324e+03 6.731592428200824474e-25
6.309080000000198197e+03 5.265250354661531274e-25
6.309120000000199070e+03 4.187886178016448333e-25
6.309160000000199943e+03 3.449982465150123055e-25
6.309200000000200816e+03 2.936987619861110186e-25
6.309240000000201690e+03 2.567570052637802056e-25
6.309280000000202563e+03 2.294192471596649965e-25
6.309320000000203436e+03 2.089359945494835566e-25
6.309360000000204309e+03 1.937275847043944708e-25
6.309400000000205182e+03 1.830200578757556840e-25
6.309440000000206055e+03 1.766339967442970831e-25
6.309480000000206928e+03 1.750920601171650230e-25
6.309520000000207801e+03 1.809344551873870764e-25
6.309560000000208674e+03 1.958707056851891666e-25
6.309600000000209548e+03 2.137396150117413129e-25
6.309640000000210421e+03 2.405692236306224875e-25
6.309680000000211294e+03 2.497365975220468881e-25
6.309720000000212167e+03 2.104144539304300479e-25
6.309760000000213040e+03 1.774039286240524136e-25
6.309800000000213913e+03 1.616717615040137637e-25
6.309840000000214786e+03 1.558608563200085278e-25
6.309880000000215659e+03 1.559173589706766290e-25
6.309920000000216532e+03 1.605166684742297529e-25
6.309960000000217406e+03 1.684557861695229913e-25
6.310000000000218279e+03 1.773423401900671227e-25
6.310040000000219152e+03 1.908925243233962747e-25
6.310080000000220025e+03 2.074009907751111991e-25
6.310120000000220898e+03 2.091213415219187425e-25
6.310160000000221771e+03 2.075699855081323961e-25
6.310200000000222644e+03 2.141962077470709515e-25
6.310240000000223517e+03 2.279984350115859084e-25
6.310280000000224391e+03 2.479049602722405579e-25
6.310320000000225264e+03 2.743485782289132363e-25
6.310360000000226137e+03 3.083363879888331603e-25
6.310400000000227010e+03 3.523829740129715254e-25
6.310440000000227883e+03 4.117673118082624051e-25
6.310480000000228756e+03 4.938661291411795443e-25
6.310520000000229629e+03 6.056285621854843266e-25
6.310560000000230502e+03 7.421324818401061994e-25
6.310600000000231375e+03 9.033699273128621722e-25
6.310640000000232249e+03 1.141939241081177323e-24
6.310680000000233122e+03 1.540132514010840938e-24
6.310720000000233995e+03 2.233804331476585893e-24
6.310760000000234868e+03 3.519785146074671192e-24
6.310800000000235741e+03 6.047678742176855946e-24
6.310840000000236614e+03 1.054430797651993731e-23
6.310880000000237487e+03 1.352020994117663044e-23
6.310920000000238360e+03 9.743583855254288598e-24
6.310960000000239233e+03 5.528257375008349382e-24
6.311000000000240107e+03 3.254558034098560443e-24
6.311040000000240980e+03 2.090837656198925855e-24
6.311080000000241853e+03 1.452977094868898362e-24
6.311120000000242726e+03 1.078124469672974348e-24
6.311160000000243599e+03 8.487528970423271908e-25
6.311200000000244472e+03 7.124710665858911550e-25
6.311240000000245345e+03 6.502941575563567339e-25
6.311280000000246218e+03 6.274931681227518587e-25
6.311320000000247092e+03 5.403931154319325854e-25
6.311360000000247965e+03 4.295945690701678915e-25
6.311400000000248838e+03 3.556601606859243442e-25
6.311440000000249711e+03 3.089517799834652630e-25
6.311480000000250584e+03 2.777899478561814980e-25
6.311520000000251457e+03 2.564676066592918733e-25
6.311560000000252330e+03 2.423379904487617360e-25
6.311600000000253203e+03 2.345452833704470146e-25
6.311640000000254076e+03 2.330764821502621301e-25
6.311680000000254950e+03 2.376114801223950982e-25
6.311720000000255823e+03 2.519845108106514489e-25
6.311760000000256696e+03 2.888919204328955091e-25
6.311800000000257569e+03 3.448333048252760084e-25
6.311840000000258442e+03 3.431587522082305659e-25
6.311880000000259315e+03 2.965736709168562303e-25
6.311920000000260188e+03 2.778807054918087536e-25
6.311960000000261061e+03 2.914591743861189703e-25
6.312000000000261934e+03 3.273478980074353670e-25
6.312040000000262808e+03 3.509505119057134647e-25
6.312080000000263681e+03 3.382393702745758182e-25
6.312120000000264554e+03 3.222418002565310359e-25
6.312160000000265427e+03 3.020842695349904610e-25
6.312200000000266300e+03 2.870246046271806049e-25
6.312240000000267173e+03 2.877349232116598592e-25
6.312280000000268046e+03 2.875300671701522890e-25
6.312320000000268919e+03 2.898528190050163633e-25
6.312360000000269793e+03 3.023064465667024437e-25
6.312400000000270666e+03 3.240477902937077932e-25
6.312440000000271539e+03 3.549945143449198211e-25
6.312480000000272412e+03 3.946847795361648529e-25
6.312520000000273285e+03 4.433045240015848899e-25
6.312560000000274158e+03 5.048982117271896347e-25
6.312600000000275031e+03 5.873613870698366954e-25
6.312640000000275904e+03 7.004210327023341635e-25
6.312680000000276777e+03 8.583804795944117482e-25
6.312720000000277651e+03 1.085904302663996325e-24
6.312760000000278524e+03 1.427760354412780746e-24
6.312800000000279397e+03 1.970204517493343319e-24
6.312840000000280270e+03 2.891839792673527064e-24
6.312880000000281143e+03 4.588027449088336834e-24
6.312920000000282016e+03 7.914519871419001861e-24
6.312960000000282889e+03 1.375180907846362241e-23
6.313000000000283762e+03 1.732192949513052600e-23
6.313040000000284635e+03 1.231432920985283463e-23
6.313080000000285509e+03 6.987128266250530098e-24
6.313120000000286382e+03 4.130104944807309669e-24
6.313160000000287255e+03 2.663196828217664253e-24
6.313200000000288128e+03 1.856303407793075419e-24
6.313240000000289001e+03 1.379914133711845240e-24
6.313280000000289874e+03 1.084636629432330866e-24
6.313320000000290747e+03 8.989971857518796628e-25
6.313360000000291620e+03 7.884758343079124850e-25
6.313400000000292493e+03 7.416984922075102262e-25
6.313440000000293367e+03 7.502592704471973513e-25
6.313480000000294240e+03 7.718480046976179395e-25
6.313520000000295113e+03 7.773599496046090586e-25
6.313560000000295986e+03 7.016623001229329959e-25
6.313600000000296859e+03 5.467686121664822713e-25
6.313640000000297732e+03 4.351027113897198578e-25
6.313680000000298605e+03 3.712536218030700696e-25
6.313720000000299478e+03 3.347499200875534822e-25
6.313760000000300352e+03 3.153552207586353833e-25
6.313800000000301225e+03 3.103555034929049045e-25
6.313840000000302098e+03 3.234427487059483825e-25
6.313880000000302971e+03 3.661048109476951391e-25
6.313920000000303844e+03 4.372509708643173755e-25
6.313960000000304717e+03 4.408262674420722212e-25
6.314000000000305590e+03 3.689187009671033677e-25
6.314040000000306463e+03 3.236893825767803135e-25
6.314080000000307336e+03 3.101831587100900813e-25
6.314120000000308210e+03 3.195075846088821819e-25
6.314160000000309083e+03 3.263603532649566103e-25
6.314200000000309956e+03 3.086812642364905145e-25
6.314240000000310829e+03 2.957360309366663826e-25
6.314280000000311702e+03 2.950799309714791977e-25
6.314320000000312575e+03 3.024633634651293311e-25
6.314360000000313448e+03 3.160098308729170638e-25
6.314400000000314321e+03 3.353760890626450739e-25
6.314440000000315194e+03 3.609652048616626655e-25
6.314480000000316068e+03 3.938732981624588375e-25
6.314520000000316941e+03 4.350074797893342752e-25
6.314560000000317814e+03 4.853423015145822134e-25
6.314600000000318687e+03 5.490941623940479097e-25
6.314640000000319560e+03 6.328065511746191458e-25
6.314680000000320433e+03 7.446750057023651373e-25
6.314720000000321306e+03 8.986457197914048803e-25
6.314760000000322179e+03 1.117943735717692505e-24
6.314800000000323053e+03 1.439891530470975115e-24
6.314840000000323926e+03 1.900737199015293683e-24
6.314880000000324799e+03 2.504290932274343249e-24
6.314920000000325672e+03 3.417522510781344221e-24
6.314960000000326545e+03 5.119225102607312892e-24
6.315000000000327418e+03 8.492505184957994044e-24
6.315040000000328291e+03 1.489899761870290694e-23
6.315080000000329164e+03 2.165148576707358079e-23
6.315120000000330037e+03 1.806598541414596886e-23
6.315160000000330911e+03 1.055287878893629775e-23
6.315200000000331784e+03 6.103279248864737341e-24
6.315240000000332657e+03 3.832520010009716198e-24
6.315280000000333530e+03 2.605986891308830521e-24
6.315320000000334403e+03 1.886173555289525638e-24
6.315360000000335276e+03 1.435023819664781699e-24
6.315400000000336149e+03 1.137385232025246585e-24
6.315440000000337022e+03 9.329063997033503014e-25
6.315480000000337895e+03 7.884538823033201363e-25
6.315520000000338769e+03 6.851667213555495039e-25
6.315560000000339642e+03 6.125013575411895122e-25
6.315600000000340515e+03 5.658620125245807482e-25
6.315640000000341388e+03 5.468851887126012787e-25
6.315680000000342261e+03 5.669247995159154529e-25
6.315720000000343134e+03 6.446950921277960043e-25
6.315760000000344007e+03 7.192434704949909480e-25
6.315800000000344880e+03 6.320744915999556642e-25
6.315840000000345754e+03 5.144221131158198066e-25
6.315880000000346627e+03 4.561489315281384141e-25
