# nu[cm-1] sigma[cm2/molecule]  (3429 lines, p=800.00hPa T=280.0K wing=40)
7.000000000000000000e+03 2.752342452210794994e-22
7.000010000000000218e+03 2.338080139292907318e-22
7.000020000000000437e+03 1.975019002025646416e-22
7.000030000000000655e+03 1.676802642107261330e-22
7.000040000000000873e+03 1.439391656522520534e-22
7.000050000000001091e+03 1.252618777418294746e-22
7.000060000000001310e+03 1.105868255676140526e-22
7.000070000000001528e+03 9.900941993483999972e-23
7.000080000000001746e+03 8.981811202612189995e-23
7.000090000000001965e+03 8.247190977672096629e-23
7.000100000000002183e+03 7.656168819724490957e-23
7.000110000000002401e+03 7.179001113837179988e-23
7.000120000000002619e+03 6.792424522936291670e-23
7.000130000000002838e+03 6.479154411545504217e-23
7.000140000000003056e+03 6.226036399132237152e-23
7.000150000000003274e+03 6.022988832802003965e-23
7.000160000000003492e+03 5.862237110392383845e-23
7.000170000000003711e+03 5.737758152807495828e-23
7.000180000000003929e+03 5.644880743228601514e-23
7.000190000000004147e+03 5.579991609354646080e-23
7.000200000000004366e+03 5.540310862829888243e-23
7.000210000000004584e+03 5.523726272878598751e-23
7.000220000000004802e+03 5.528677138195084054e-23
7.000230000000005020e+03 5.554061074633772612e-23
7.000240000000005239e+03 5.599178902581564820e-23
7.000250000000005457e+03 5.663678713121116680e-23
7.000260000000005675e+03 5.747520942576540374e-23
7.000270000000005894e+03 5.850952155296479607e-23
7.000280000000006112e+03 5.974491471666522397e-23
7.000290000000006330e+03 6.118938811052198612e-23
7.000300000000006548e+03 6.285409883815839812e-23
7.000310000000006767e+03 6.475394206582173609e-23
7.000320000000006985e+03 6.690779672388652808e-23
7.000330000000007203e+03 6.933877875958359720e-23
7.000340000000007421e+03 7.207451580781759980e-23
7.000350000000007640e+03 7.514778085998850191e-23
7.000360000000007858e+03 7.859746063182460467e-23
7.000370000000008076e+03 8.246979122860437965e-23
7.000380000000008295e+03 8.681986602877675413e-23
7.000390000000008513e+03 9.171349042973076967e-23
7.000400000000008731e+03 9.722949747686689116e-23
7.000410000000008949e+03 1.034626683073419245e-22
7.000420000000009168e+03 1.105274398958337481e-22
7.000430000000009386e+03 1.185626360210481555e-22
7.000440000000009604e+03 1.277375314493871189e-22
7.000450000000009823e+03 1.382596808347878420e-22
7.000460000000010041e+03 1.503848624166965733e-22
7.000470000000010259e+03 1.644302499000376009e-22
7.000480000000010477e+03 1.807910456119428423e-22
7.000490000000010696e+03 1.999619766059576902e-22
7.000500000000010914e+03 2.225644291819087227e-22
7.000510000000011132e+03 2.493798333118799800e-22
7.000520000000011350e+03 2.814000937907143328e-22
7.000530000000011569e+03 3.198225468623107761e-22
7.000540000000011787e+03 3.661447115236418803e-22
7.000550000000012005e+03 4.221141632957793148e-22
7.000560000000012224e+03 4.896341651931344343e-22
7.000570000000012442e+03 5.704549193807688379e-22
7.000580000000012660e+03 6.654812917972303321e-22
7.000590000000012878e+03 7.735004918687910543e-22
7.000600000000013097e+03 8.893298380606504935e-22
7.000610000000013315e+03 1.002048433394453357e-21
7.000620000000013533e+03 1.095061357982028853e-21
7.000630000000013752e+03 1.150059853661283869e-21
7.000640000000013970e+03 1.154566335487890892e-21
7.000650000000014188e+03 1.108482774156094475e-21
7.000660000000014406e+03 1.024211447482982540e-21
7.000670000000014625e+03 9.202445804183560487e-22
7.000680000000014843e+03 8.135747298968041451e-22
7.000690000000015061e+03 7.156153356982046854e-22
7.000700000000015280e+03 6.320434374818004405e-22
7.000710000000015498e+03 5.645573231924570027e-22
7.000720000000015716e+03 5.127087859140576638e-22
7.000730000000015934e+03 4.751310763124730731e-22
7.000740000000016153e+03 4.501063537260027227e-22
7.000750000000016371e+03 4.356334557903413032e-22
7.000760000000016589e+03 4.291635043535827940e-22
7.000770000000016807e+03 4.272995897387974209e-22
7.000780000000017026e+03 4.256828480855309557e-22
7.000790000000017244e+03 4.197090938204328109e-22
7.000800000000017462e+03 4.059227869051256225e-22
7.000810000000017681e+03 3.833705057911019564e-22
7.000820000000017899e+03 3.538216877685092343e-22
7.000830000000018117e+03 3.206421950618517492e-22
7.000840000000018335e+03 2.872289683906375189e-22
7.000850000000018554e+03 2.560056224306293187e-22
7.000860000000018772e+03 2.282268168484965394e-22
7.000870000000018990e+03 2.042600151630063824e-22
7.000880000000019209e+03 1.839649649074780322e-22
7.000890000000019427e+03 1.669752090140623378e-22
7.000900000000019645e+03 1.528200876863651502e-22
7.000910000000019863e+03 1.409158915247389087e-22
7.000920000000020082e+03 1.306410235341066852e-22
7.000930000000020300e+03 1.216393768453068626e-22
7.000940000000020518e+03 1.138741589887039254e-22
7.000950000000020736e+03 1.073442623843756980e-22
7.000960000000020955e+03 1.019392005405813044e-22
7.000970000000021173e+03 9.750793825206523094e-23
7.000980000000021391e+03 9.391793463086958079e-23
7.000990000000021610e+03 9.106037433060422173e-23
7.001000000000021828e+03 8.883397621316083844e-23
7.001010000000022046e+03 8.712321788275166040e-23
7.001020000000022264e+03 8.578273393414113272e-23
7.001030000000022483e+03 8.464065893908585792e-23
7.001040000000022701e+03 8.353131372426344387e-23
7.001050000000022919e+03 8.234994178028748969e-23
7.001060000000023138e+03 8.109497834958607066e-23
7.001070000000023356e+03 7.985584502803872235e-23
7.001080000000023574e+03 7.873447765981824378e-23
7.001090000000023792e+03 7.773838205438364055e-23
7.001100000000024011e+03 7.673067057941325745e-23
7.001110000000024229e+03 7.552461211253892530e-23
7.001120000000024447e+03 7.407578927572646666e-23
7.001130000000024665e+03 7.256046110738335597e-23
7.001140000000024884e+03 7.125016477420204235e-23
7.001150000000025102e+03 7.035165366701715060e-23
7.001160000000025320e+03 6.996465783985239926e-23
7.001170000000025539e+03 7.012066761518469079e-23
7.001180000000025757e+03 7.082644475388816003e-23
7.001190000000025975e+03 7.208471700993135647e-23
7.001200000000026193e+03 7.388649607755697758e-23
7.001210000000026412e+03 7.617638469593713042e-23
7.001220000000026630e+03 7.879813341334970056e-23
7.001230000000026848e+03 8.144689185183520372e-23
7.001240000000027067e+03 8.368291694626914358e-23
7.001250000000027285e+03 8.506445665308594332e-23
7.001260000000027503e+03 8.536337525538052817e-23
7.001270000000027721e+03 8.470001405385201536e-23
7.001280000000027940e+03 8.346994299891778391e-23
7.001290000000028158e+03 8.213295470651392759e-23
7.001300000000028376e+03 8.104121511763941324e-23
7.001310000000028595e+03 8.038907622413454026e-23
7.001320000000028813e+03 8.025164007688738680e-23
7.001330000000029031e+03 8.063487997949914786e-23
7.001340000000029249e+03 8.152102182408241343e-23
7.001350000000029468e+03 8.289199800784751426e-23
7.001360000000029686e+03 8.474055821567348725e-23
7.001370000000029904e+03 8.707707857463021476e-23
7.001380000000030122e+03 8.993240330122838833e-23
7.001390000000030341e+03 9.336278130271087760e-23
7.001400000000030559e+03 9.745375311902931327e-23
7.001410000000030777e+03 1.023279544031406638e-22
7.001420000000030996e+03 1.081511266267099472e-22
7.001430000000031214e+03 1.151299567894499314e-22
7.001440000000031432e+03 1.234826086451684897e-22
7.001450000000031650e+03 1.333340448752062973e-22
7.001460000000031869e+03 1.445486269526966484e-22
7.001470000000032087e+03 1.566031515303778693e-22
7.001480000000032305e+03 1.688568688374601423e-22
7.001490000000032524e+03 1.812712129034705011e-22
7.001500000000032742e+03 1.948680135920930766e-22
7.001510000000032960e+03 2.112852300997483039e-22
7.001520000000033178e+03 2.318672215699959170e-22
7.001530000000033397e+03 2.569141335892264149e-22
7.001540000000033615e+03 2.850319014290658795e-22
7.001550000000033833e+03 3.125885838575543403e-22
7.001560000000034051e+03 3.341792739209583518e-22
7.001570000000034270e+03 3.450249443016906552e-22
7.001580000000034488e+03 3.441271512416577652e-22
7.001590000000034706e+03 3.350688425330373511e-22
7.001600000000034925e+03 3.235560488439055626e-22
7.001610000000035143e+03 3.143724773822307963e-22
7.001620000000035361e+03 3.101387487508503843e-22
7.001630000000035579e+03 3.116703991158499631e-22
7.001640000000035798e+03 3.187127045154166455e-22
7.001650000000036016e+03 3.304113018622225618e-22
7.001660000000036234e+03 3.455320110707386602e-22
7.001670000000036453e+03 3.627062779285518360e-22
7.001680000000036671e+03 3.808928358419757344e-22
7.001690000000036889e+03 3.999101830572312010e-22
7.001700000000037107e+03 4.206364836499169371e-22
7.001710000000037326e+03 4.447052459105133944e-22
7.001720000000037544e+03 4.739584703705952443e-22
7.001730000000037762e+03 5.100991406261932046e-22
7.001740000000037980e+03 5.546118055485442815e-22
7.001750000000038199e+03 6.088688669536428262e-22
7.001760000000038417e+03 6.741894386332521219e-22
7.001770000000038635e+03 7.517987837045231292e-22
7.001780000000038854e+03 8.426255930928509914e-22
7.001790000000039072e+03 9.469461680606387785e-22
7.001800000000039290e+03 1.063996717512160198e-21
7.001810000000039508e+03 1.191764079919682407e-21
7.001820000000039727e+03 1.327681399930652074e-21
7.001830000000039945e+03 1.470141990857307151e-21
7.001840000000040163e+03 1.621271847610373262e-21
7.001850000000040382e+03 1.789017561955942117e-21
7.001860000000040600e+03 1.987535191638097105e-21
7.001870000000040818e+03 2.234905430539069224e-21
7.001880000000041036e+03 2.548137692830470576e-21
7.001890000000041255e+03 2.935285943917616986e-21
7.001900000000041473e+03 3.384947201848975662e-21
7.001910000000041691e+03 3.856523751884150840e-21
7.001920000000041910e+03 4.278112341533864337e-21
7.001930000000042128e+03 4.557765915823886321e-21
7.001940000000042346e+03 4.611317291085106030e-21
7.001950000000042564e+03 4.403987644135190814e-21
7.001960000000042783e+03 3.978968812591706828e-21
7.001970000000043001e+03 3.437628884021340917e-21
7.001980000000043219e+03 2.884317269637417313e-21
7.001990000000043437e+03 2.386101215103388476e-21
7.002000000000043656e+03 1.968667686881931406e-21
7.002010000000043874e+03 1.631573967931085400e-21
7.002020000000044092e+03 1.363425391392372472e-21
7.002030000000044311e+03 1.150623682284814659e-21
7.002040000000044529e+03 9.809732839828839886e-22
7.002050000000044747e+03 8.446214534882785211e-22
7.002060000000044965e+03 7.340003375014000020e-22
7.002070000000045184e+03 6.433430180755806707e-22
7.002080000000045402e+03 5.682843878041380055e-22
7.002090000000045620e+03 5.056040911210296722e-22
7.002100000000045839e+03 4.527704801310133882e-22
7.002110000000046057e+03 4.078693154837782552e-22
7.002120000000046275e+03 3.694190919963839826e-22
7.002130000000046493e+03 3.362627315409284673e-22
7.002140000000046712e+03 3.074885149167993723e-22
7.002150000000046930e+03 2.823719539667135575e-22
7.002160000000047148e+03 2.603327316830967788e-22
7.002170000000047366e+03 2.409021942119032739e-22
7.002180000000047585e+03 2.236974932892246501e-22
7.002190000000047803e+03 2.084083696760060621e-22
7.002200000000048021e+03 1.947324536663482390e-22
7.002210000000048240e+03 1.824201307970476879e-22
7.002220000000048458e+03 1.712447727557261610e-22
7.002230000000048676e+03 1.610436389492378885e-22
7.002240000000048894e+03 1.517185573267932460e-22
7.002250000000049113e+03 1.431986465344965965e-22
7.002260000000049331e+03 1.354135554751614731e-22
7.002270000000049549e+03 1.282914030953243353e-22
7.002280000000049768e+03 1.217650506973372617e-22
7.002290000000049986e+03 1.157729585262529104e-22
7.002300000000050204e+03 1.102605296824300946e-22
7.002310000000050422e+03 1.051793782871450734e-22
7.002320000000050641e+03 1.004866918071808530e-22
7.002330000000050859e+03 9.614447294373403063e-23
7.002340000000051077e+03 9.211869528742050155e-23
7.002350000000051296e+03 8.837833588025811232e-23
7.002360000000051514e+03 8.489466534725580619e-23
7.002370000000051732e+03 8.164221721473793304e-23
7.002380000000051950e+03 7.860074147606692590e-23
7.002390000000052169e+03 7.575465630990128715e-23
7.002400000000052387e+03 7.309057792553199619e-23
7.002410000000052605e+03 7.059611787696763480e-23
7.002420000000052823e+03 6.825997267749253174e-23
7.002430000000053042e+03 6.607144218350371866e-23
7.002440000000053260e+03 6.402135126947541893e-23
7.002450000000053478e+03 6.210154082387233200e-23
7.002460000000053697e+03 6.030529217005075394e-23
7.002470000000053915e+03 5.862750542376136893e-23
7.002480000000054133e+03 5.706509579949707519e-23
7.002490000000054351e+03 5.561761570606550458e-23
7.002500000000054570e+03 5.428829138815672965e-23
7.002510000000054788e+03 5.308569697100442695e-23
7.002520000000055006e+03 5.202632035792216300e-23
7.002530000000055225e+03 5.113773518321045980e-23
7.002540000000055443e+03 5.045951875339890617e-23
7.002550000000055661e+03 5.003042963721428634e-23
7.002560000000055879e+03 4.983528720241220839e-23
7.002570000000056098e+03 4.970221540802261881e-23
7.002580000000056316e+03 4.927351348123545786e-23
7.002590000000056534e+03 4.825365194583223252e-23
7.002600000000056752e+03 4.672793255444880618e-23
7.002610000000056971e+03 4.505973785613263385e-23
7.002620000000057189e+03 4.353671318323321008e-23
7.002630000000057407e+03 4.224801182387419073e-23
7.002640000000057626e+03 4.117106768715289286e-23
7.002650000000057844e+03 4.025805892796586782e-23
7.002660000000058062e+03 3.946848451559465916e-23
7.002670000000058280e+03 3.877393114734869754e-23
7.002680000000058499e+03 3.815546727833450115e-23
7.002690000000058717e+03 3.760051683046089378e-23
7.002700000000058935e+03 3.710054446680608652e-23
7.002710000000059154e+03 3.664959865515818980e-23
7.002720000000059372e+03 3.624363720221625720e-23
7.002730000000059590e+03 3.588018888703436362e-23
7.002740000000059808e+03 3.555793521181395507e-23
7.002750000000060027e+03 3.527612725194613691e-23
7.002760000000060245e+03 3.503454239397202369e-23
7.002770000000060463e+03 3.483344120716026224e-23
7.002780000000060681e+03 3.467356049479588512e-23
7.002790000000060900e+03 3.455609888355803131e-23
7.002800000000061118e+03 3.448285443480962813e-23
7.002810000000061336e+03 3.445611387405224352e-23
7.002820000000061555e+03 3.447882770492430804e-23
7.002830000000061773e+03 3.455467772190858163e-23
7.002840000000061991e+03 3.468820059642632743e-23
7.002850000000062209e+03 3.488494750195459746e-23
7.002860000000062428e+03 3.515168854437481478e-23
7.002870000000062646e+03 3.549667332847500010e-23
7.002880000000062864e+03 3.592996379530667290e-23
7.002890000000063083e+03 3.646385953545067695e-23
7.002900000000063301e+03 3.711344310231314407e-23
7.002910000000063519e+03 3.789728050336395840e-23
7.002920000000063737e+03 3.883831905890820720e-23
7.002930000000063956e+03 3.996501608929610972e-23
7.002940000000064174e+03 4.131268001767867085e-23
7.002950000000064392e+03 4.292500050615222297e-23
7.002960000000064611e+03 4.485618769751671300e-23
7.002970000000064829e+03 4.717432270422747012e-23
7.002980000000065047e+03 4.996555713754278582e-23
7.002990000000065265e+03 5.333224140629380585e-23
7.003000000000065484e+03 5.739782202837417081e-23
7.003010000000065702e+03 6.229932110605744097e-23
7.003020000000065920e+03 6.817332824245150523e-23
7.003030000000066138e+03 7.512066255574133528e-23
7.003040000000066357e+03 8.313754870036620600e-23
7.003050000000066575e+03 9.200450225636787497e-23
7.003060000000066793e+03 1.011499339909290369e-22
7.003070000000067012e+03 1.095646368866365519e-22
7.003080000000067230e+03 1.159059064097134456e-22
7.003090000000067448e+03 1.188901127237872863e-22
7.003100000000067666e+03 1.178464071488193628e-22
7.003110000000067885e+03 1.130603455206996742e-22
7.003120000000068103e+03 1.056239168196571795e-22
7.003130000000068321e+03 9.691959998538461000e-23
7.003140000000068540e+03 8.812689170300708373e-23
7.003150000000068758e+03 7.999988187323849661e-23
7.003160000000068976e+03 7.289142609966234350e-23
7.003170000000069194e+03 6.687220282210561650e-23
7.003180000000069413e+03 6.189525348820713312e-23
7.003190000000069631e+03 5.782520289907391349e-23
7.003200000000069849e+03 5.452420568692925390e-23
7.003210000000070067e+03 5.186381459030672862e-23
7.003220000000070286e+03 4.973639431058975135e-23
7.003230000000070504e+03 4.805100042185205537e-23
7.003240000000070722e+03 4.673512284820008503e-23
7.003250000000070941e+03 4.573111197267739700e-23
7.003260000000071159e+03 4.499353396843571365e-23
7.003270000000071377e+03 4.448707317318958922e-23
7.003280000000071595e+03 4.418473438994650873e-23
7.003290000000071814e+03 4.406611862135170538e-23
7.003300000000072032e+03 4.411612539012107160e-23
7.003310000000072250e+03 4.432412337538306620e-23
7.003320000000072469e+03 4.468342760447779665e-23
7.003330000000072687e+03 4.519088245343480464e-23
7.003340000000072905e+03 4.584660678008526718e-23
7.003350000000073123e+03 4.665388946679682108e-23
7.003360000000073342e+03 4.761893136692996461e-23
7.003370000000073560e+03 4.875095205925061400e-23
7.003380000000073778e+03 5.006163285026645420e-23
7.003390000000073996e+03 5.156414344144224908e-23
7.003400000000074215e+03 5.327094730300863032e-23
7.003410000000074433e+03 5.518980183430270583e-23
7.003420000000074651e+03 5.731791531331157825e-23
7.003430000000074870e+03 5.963621280760743802e-23
7.003440000000075088e+03 6.210931795186355369e-23
7.003450000000075306e+03 6.469590744310392625e-23
7.003460000000075524e+03 6.737532634682116463e-23
7.003470000000075743e+03 7.017088980508339525e-23
7.003480000000075961e+03 7.315660309129579273e-23
7.003490000000076179e+03 7.644047324212068052e-23
7.003500000000076398e+03 8.013961085076036506e-23
7.003510000000076616e+03 8.436461473904212048e-23
7.003520000000076834e+03 8.921815407499541799e-23
7.003530000000077052e+03 9.480237426372838583e-23
7.003540000000077271e+03 1.012286662382557892e-22
7.003550000000077489e+03 1.086266112862881396e-22
7.003560000000077707e+03 1.171515995403169435e-22
7.003570000000077926e+03 1.269916066754207089e-22
7.003580000000078144e+03 1.383734936288751660e-22
7.003590000000078362e+03 1.515689047495954397e-22
7.003600000000078580e+03 1.668981402205713686e-22
7.003610000000078799e+03 1.847303567165888494e-22
7.003620000000079017e+03 2.054748249237066444e-22
7.003630000000079235e+03 2.295503194150433336e-22
7.003640000000079453e+03 2.573426153164145546e-22
7.003650000000079672e+03 2.890871030220256772e-22
7.003660000000079890e+03 3.247020770718480077e-22
7.003670000000080108e+03 3.635353406317222150e-22
7.003680000000080327e+03 4.040605113529029051e-22
7.003690000000080545e+03 4.436303795248717647e-22
7.003700000000080763e+03 4.784967968027841184e-22
7.003710000000080981e+03 5.043342391110352182e-22
7.003720000000081200e+03 5.173170892546717355e-22
7.003730000000081418e+03 5.153917907545428673e-22
7.003740000000081636e+03 4.990645526949628464e-22
7.003750000000081855e+03 4.712053865195432765e-22
7.003760000000082073e+03 4.359936644321098220e-22
7.003770000000082291e+03 3.976511267511882480e-22
7.003780000000082509e+03 3.595555345050105785e-22
7.003790000000082728e+03 3.239271311290813982e-22
7.003800000000082946e+03 2.919340185860221669e-22
7.003810000000083164e+03 2.639715573798391409e-22
7.003820000000083382e+03 2.399484454348166350e-22
7.003830000000083601e+03 2.195193452334801254e-22
7.003840000000083819e+03 2.022569859651929014e-22
7.003850000000084037e+03 1.877653662672166917e-22
7.003860000000084256e+03 1.757049571026855114e-22
7.003870000000084474e+03 1.657838558654613284e-22
7.003880000000084692e+03 1.577457988087710499e-22
7.003890000000084910e+03 1.513692858590676734e-22
7.003900000000085129e+03 1.464679001799362740e-22
7.003910000000085347e+03 1.428891055416166193e-22
7.003920000000085565e+03 1.405129596627357494e-22
7.003930000000085784e+03 1.392502986036972247e-22
7.003940000000086002e+03 1.390402726050692882e-22
7.003950000000086220e+03 1.398479484081967776e-22
7.003960000000086438e+03 1.416625809998736647e-22
7.003970000000086657e+03 1.444967592223163530e-22
